
********************   Retrieval message: `ftol` termination condition is satisfied.   ********************
Retrieved microphysical properties and SSA:
,rtv_value,rtv_sd_tot,rtv_sd_se,rtv_sd_mn
Vt,259.94035644033863,27.997456279752555,19.681169684627918,19.855705267305005
Rc,1.3944909778882633,0.21195071402080357,0.1552166071584525,0.14344333027656922
Sc,1.8858359705603582,0.2042207568340624,0.172485781623811,0.10888339233672764
fvf,0.06636961191948376,0.015196617763612353,0.009536799465143223,0.011711308615395915
mR,1.5550198478551216,0.016550645087520906,0.01366491934047919,0.009337403249838167
mI355,0.009588328010989588,0.0013870729994961014,0.0009194803064701339,0.0010337793315624499
reff,1.1395226137600283,0.131633561942867,0.08531453858262299,0.10024382343167454
SSA355,0.8404940844927464,0.01038377161379412,0.005242747180116731,0.00896305276860594
SSA532,0.9175337100759758,0.005886183033935314,0.0028469047058653973,0.005151920448212432
SSA1064,0.9889441863397301,0.00135388599409653,0.000968975071827639,0.0009455657540263238

Retrieved volume size distribution:
r (um),dV/dlnr (um^3/cm^3)
0.0005,7.630236619051122e-17
0.0007,7.014493770149194e-15
0.0009,1.716571335454024e-13
0.0011,1.9755272212516e-12
0.0015,7.11343450540055e-11
0.0019,9.337056035552739e-10
0.0025,1.5646525031667017e-08
0.0033,2.2495213253857583e-07
0.0043,2.3996367801024057e-06
0.0056,2.1501482128596713e-05
0.0073,0.00016378819163969272
0.0096,0.0011155611128086408
0.0127,0.006563431135280149
0.0166,0.029947352104032897
0.0218,0.11737209359666095
0.0285,0.37722323312452694
0.0375,1.040785247854479
0.0491,2.360291413442344
0.0645,4.51853792706002
0.0846,7.210608668748919
0.111,9.659113849535126
0.1457,10.98157777915649
0.1912,11.11381713468777
0.2508,11.720259942067644
0.3291,16.513658067602442
0.4318,30.43229072107449
0.5666,56.96665982432618
0.7433,93.80514043653876
0.9753,130.36004255072538
1.2797,151.268958696735
1.6791,146.227394491137
2.2031,117.69607256762573
2.8906,78.86886540589595
3.7926,44.00048166165791
4.9762,20.434883177020218
6.5291,7.90115725187782
8.5668,2.5430534425067832
11.2402,0.6814732579387779
14.748,0.15202365201189422
19.3504,0.028234100869596733
25.3891,0.004365374769240197

Covariance matrices of the logarithmic state parameters:

Total retrieval covariance
,ln(Vt),ln(Rc),ln(Sc),ln(fvf),ln(mR),ln(mI355)
ln(Vt),0.011534073918451206,0.01484715098845377,0.005205539548422014,-0.0065504621408361795,-0.00048247961390183807,-0.010808362227359264
ln(Rc),0.014847150988453782,0.022838604909509924,0.011193080722848687,-0.010550552371432214,-0.00025357311916041146,-0.014057263960169734
ln(Sc),0.005205539548422026,0.011193080722848693,0.011658905262650699,-0.01695405332450026,0.00043498200033572916,-0.0014316454876226751
ln(fvf),-0.006550462140836183,-0.010550552371432204,-0.01695405332450024,0.05109896178657301,-0.0008237386852965437,-0.0042203594045789085
ln(mR),-0.0004824796139018378,-0.00025357311916041097,0.0004349820003357299,-0.0008237386852965459,0.0001132748199991331,0.0010453188125861218
ln(mI355),-0.010808362227359286,-0.014057263960169762,-0.0014316454876226797,-0.0042203594045789,0.0010453188125861222,0.020711316397747564

Retrieval covariance for smoothing error
,ln(Vt),ln(Rc),ln(Sc),ln(fvf),ln(mR),ln(mI355)
ln(Vt),0.005716267292689676,0.007833536624532922,0.003564213940155153,-0.004202420495242902,-0.0002847607114049172,-0.006153590679347666
ln(Rc),0.007833536624532907,0.012313129551704915,0.007932957721064622,-0.010576316317834811,-8.310729058176694e-05,-0.006613411449593702
ln(Sc),0.003564213940155178,0.007932957721064674,0.008330834330489222,-0.01264727406695155,0.0004238480426808492,-0.00014647666354871964
ln(fvf),-0.004202420495242982,-0.010576316317834945,-0.012647274066951597,0.02043719581132647,-0.0007771486869796051,-0.001754610709244651
ln(mR),-0.00028476071140491507,-8.310729058176375e-05,0.00042384804268085353,-0.0007771486869796104,7.721923659628047e-05,0.0006944914699079098
ln(mI355),-0.006153590679347765,-0.006613411449593831,-0.00014647666354873005,-0.0017546107092446788,0.0006944914699079181,0.00915397709649392

Retrieval covariance for measurement noise
,ln(Vt),ln(Rc),ln(Sc),ln(fvf),ln(mR),ln(mI355)
ln(Vt),0.00581780662576153,0.007013614363920848,0.0016413256082668608,-0.0023480416455932767,-0.00019771890249692088,-0.004654771548011597
ln(Rc),0.0070136143639208766,0.010525475357805009,0.0032601230017840644,2.5763946402596744e-05,-0.00017046582857864451,-0.007443852510576032
ln(Sc),0.0016413256082668478,0.0032601230017840184,0.0033280709321614767,-0.00430677925754871,1.1133957654879953e-05,-0.0012851688240739555
ln(fvf),-0.002348041645593201,2.5763946402740726e-05,-0.004306779257548643,0.030661765975246544,-4.658999831693851e-05,-0.0024657486953342574
ln(mR),-0.00019771890249692273,-0.00017046582857864722,1.1133957654876355e-05,-4.658999831693545e-05,3.6055583402852625e-05,0.00035082734267821204
ln(mI355),-0.004654771548011521,-0.00744385251057593,-0.0012851688240739496,-0.002465748695334221,0.0003508273426782041,0.011557339301253645

Optical measurement fit:
,Opt. measured,Opt. fitted,Fitting error (%)
ext355 Mm^(-1),639.2,701.8397507768004,9.799710697246633
ext532 Mm^(-1),650.0,644.1531471278906,-0.8995158264783698
bac355 Mm^(-1)*sr^(-1),9.4,9.475269470657494,0.8007390495478051
bac532 Mm^(-1)*sr^(-1),13.0,12.315137054707929,-5.2681765022467015
bac1064 Mm^(-1)*sr^(-1),12.0,11.395600286907456,-5.036664275771208
depol355,0.25,0.28546735881978824,14.186943527915297
depol532,0.34,0.3298423695397235,-2.9875383706695846
depol1064,0.23,0.2981796220662722,29.643313941857464

rmse_fit (%): 12.45